# Wavelength (nm) Intensity
101.013 2440.000
102.183 2429.000
103.352 2482.000
104.521 2408.000
105.690 2457.000
106.859 2422.000
108.028 2472.000
109.197 2391.000
110.366 2364.000
111.535 2331.000
112.705 2359.000
113.874 2339.000
115.043 2358.000
116.212 2278.000
117.381 2305.000
118.550 2232.000
119.719 2240.000
120.888 2211.000
122.057 2221.000
123.226 2182.000
124.396 2198.000
125.565 2102.000
126.734 2152.000
127.903 2082.000
129.072 2041.000
130.241 1980.000
131.410 1999.000
132.579 1995.000
133.748 2048.000
134.918 1963.000
136.087 1990.000
137.256 1900.000
138.425 1915.000
139.594 1887.000
140.763 1853.000
141.932 1830.000
143.101 1879.000
144.270 1813.000
145.440 1851.000
146.609 1782.000
147.778 1786.000
148.947 1735.000
150.116 1761.000
151.285 1727.000
152.454 1781.000
153.623 1732.000
154.792 1772.000
155.962 1697.000
157.131 1715.000
158.300 1661.000
159.469 1647.000
160.638 1584.000
161.807 1593.000
162.976 1537.000
164.145 1593.000
165.314 1507.000
166.484 1477.000
167.653 1435.000
168.822 1464.000
169.991 1453.000
171.160 1491.000
172.329 1437.000
173.498 1510.000
174.667 1457.000
175.836 1509.000
177.005 1517.000
178.175 1530.000
179.344 1531.000
180.513 1610.000
181.682 1612.000
182.851 1756.000
184.020 1805.000
185.189 1929.000
186.358 2039.000
187.527 2201.000
188.697 2356.000
189.866 2584.000
191.035 2750.000
192.204 3153.000
193.373 3503.000
194.542 4010.000
195.711 4267.000
196.880 4512.000
198.049 4502.000
199.219 4623.000
200.388 4453.000
201.557 4460.000
202.726 4228.000
203.895 4045.000
205.064 3759.000
206.233 3566.000
207.402 3296.000
208.571 3184.000
209.741 2960.000
210.910 2890.000
212.079 2752.000
213.248 2728.000
214.417 2570.000
215.586 2463.000
216.755 2312.000
217.924 2251.000
219.093 2132.000
220.263 2140.000
221.432 2031.000
222.601 2006.000
223.770 1933.000
224.939 1887.000
226.108 1814.000
227.277 1799.000
228.446 1688.000
229.615 1642.000
230.784 1528.000
231.954 1507.000
233.123 1436.000
234.292 1395.000
235.461 1338.000
236.630 1367.000
237.799 1319.000
238.968 1387.000
240.137 1318.000
241.306 1306.000
242.476 1255.000
243.645 1252.000
244.814 1160.000
245.983 1128.000
247.152 1027.000
248.321 1021.000
249.490 917.000
250.659 932.000
251.828 897.000
252.998 934.000
254.167 887.000
255.336 912.000
256.505 868.000
257.674 898.000
258.843 810.000
260.012 792.000
261.181 733.000
262.350 770.000
263.520 749.000
264.689 763.000
265.858 698.000
267.027 743.000
268.196 704.000
269.365 723.000
270.534 685.000
271.703 723.000
272.872 709.000
274.042 729.000
275.211 705.000
276.380 795.000
277.549 713.000
278.718 728.000
279.887 695.000
281.056 705.000
282.225 661.000
283.394 702.000
284.563 617.000
285.733 635.000
286.902 558.000
288.071 582.000
289.240 547.000
290.409 582.000
291.578 555.000
292.747 610.000
293.916 590.000
295.085 637.000
296.255 569.000
297.424 617.000
298.593 562.000
299.762 589.000
300.931 566.000
302.100 610.000
303.269 531.000
304.438 545.000
305.607 458.000
306.777 508.000
307.946 475.000
309.115 495.000
310.284 433.000
311.453 443.000
312.622 410.000
313.791 483.000
314.960 412.000
316.129 418.000
317.299 386.000
318.468 403.000
319.637 367.000
320.806 399.000
321.975 359.000
323.144 420.000
324.313 393.000
325.482 423.000
326.651 403.000
327.821 431.000
328.990 395.000
330.159 406.000
331.328 363.000
332.497 416.000
333.666 369.000
334.835 400.000
336.004 417.000
337.173 437.000
338.342 429.000
339.512 480.000
340.681 397.000
341.850 438.000
343.019 397.000
344.188 449.000
345.357 406.000
346.526 407.000
347.695 361.000
348.864 339.000
350.034 277.000
351.203 311.000
352.372 265.000
353.541 306.000
354.710 273.000
355.879 312.000
357.048 280.000
358.217 321.000
359.386 268.000
360.556 283.000
361.725 231.000
362.894 284.000
364.063 280.000
365.232 327.000
366.401 275.000
367.570 302.000
368.739 276.000
369.908 305.000
371.078 250.000
372.247 262.000
373.416 250.000
374.585 266.000
375.754 249.000
376.923 293.000
378.092 248.000
379.261 246.000
380.430 226.000
381.600 257.000
382.769 256.000
383.938 275.000
385.107 244.000
386.276 289.000
387.445 248.000
388.614 287.000
389.783 221.000
390.952 243.000
392.121 215.000
393.291 246.000
394.460 229.000
395.629 252.000
396.798 230.000
397.967 276.000
399.136 225.000
400.305 265.000
401.474 242.000
402.643 261.000
403.813 271.000
404.982 331.000
406.151 299.000
407.320 367.000
408.489 318.000
409.658 341.000
410.827 306.000
411.996 323.000
413.165 296.000
414.335 338.000
415.504 275.000
416.673 340.000
417.842 315.000
419.011 374.000
420.180 380.000
421.349 426.000
422.518 375.000
423.687 409.000
424.857 378.000
426.026 446.000
427.195 418.000
428.364 441.000
429.533 443.000
430.702 455.000
431.871 430.000
433.040 473.000
434.209 441.000
435.379 501.000
436.548 449.000
437.717 487.000
438.886 476.000
440.055 485.000
441.224 473.000
442.393 510.000
443.562 495.000
444.731 572.000
445.900 546.000
447.070 590.000
448.239 582.000
449.408 648.000
450.577 659.000
451.746 681.000
452.915 668.000
454.084 696.000
455.253 658.000
456.422 656.000
457.592 633.000
458.761 679.000
459.930 638.000
461.099 693.000
462.268 697.000
463.437 801.000
464.606 777.000
465.775 839.000
466.944 851.000
468.114 907.000
469.283 905.000
470.452 971.000
471.621 961.000
472.790 1023.000
473.959 1034.000
475.128 1095.000
476.297 1079.000
477.466 1109.000
478.636 1093.000
479.805 1165.000
480.974 1178.000
482.143 1258.000
483.312 1233.000
484.481 1297.000
485.650 1306.000
486.819 1389.000
487.988 1375.000
489.158 1439.000
490.327 1417.000
491.496 1485.000
492.665 1468.000
493.834 1557.000
495.003 1545.000
496.172 1575.000
497.341 1547.000
498.510 1592.000
499.679 1586.000
500.849 1667.000
502.018 1629.000
503.187 1697.000
504.356 1662.000
505.525 1715.000
506.694 1677.000
507.863 1738.000
509.032 1697.000
510.201 1757.000
511.371 1734.000
512.540 1819.000
513.709 1838.000
514.878 1883.000
516.047 1848.000
517.216 1910.000
518.385 1894.000
519.554 1958.000
520.723 1905.000
521.893 1946.000
523.062 1937.000
524.231 1977.000
525.400 1928.000
526.569 1983.000
527.738 1945.000
528.907 2008.000
530.076 1982.000
531.245 2060.000
532.415 2047.000
533.584 2075.000
534.753 2020.000
535.922 2022.000
537.091 1977.000
538.260 2045.000
539.429 1997.000
540.598 1994.000
541.767 1992.000
542.937 2024.000
544.106 1990.000
545.275 2030.000
546.444 1931.000
547.613 1909.000
548.782 1829.000
549.951 1844.000
551.120 1783.000
552.289 1768.000
553.458 1727.000
554.628 1732.000
555.797 1692.000
556.966 1718.000
558.135 1633.000
559.304 1604.000
560.473 1519.000
561.642 1550.000
562.811 1533.000
563.980 1613.000
565.150 1624.000
566.319 1760.000
567.488 1837.000
568.657 2043.000
569.826 2179.000
570.995 2392.000
572.164 2507.000
573.333 2701.000
574.502 2814.000
575.672 3014.000
576.841 3082.000
578.010 3214.000
579.179 3315.000
580.348 3447.000
581.517 3464.000
582.686 3540.000
583.855 3548.000
585.024 3607.000
586.194 3602.000
587.363 3674.000
588.532 3657.000
589.701 3716.000
590.870 3666.000
592.039 3728.000
593.208 3651.000
594.377 3705.000
595.546 3665.000
596.716 3702.000
597.885 3673.000
599.054 3717.000
600.223 3715.000
601.392 3754.000
602.561 3730.000
603.730 3746.000
604.899 3687.000
606.068 3752.000
607.237 3734.000
608.407 3775.000
609.576 3722.000
610.745 3752.000
611.914 3700.000
613.083 3740.000
614.252 3666.000
615.421 3676.000
616.590 3670.000
617.759 3708.000
618.929 3678.000
620.098 3708.000
621.267 3643.000
622.436 3638.000
623.605 3573.000
624.774 3572.000
625.943 3499.000
627.112 3488.000
628.281 3369.000
629.451 3326.000
630.620 3194.000
631.789 3123.000
632.958 2936.000
634.127 2806.000
635.296 2582.000
636.465 2405.000
637.634 2203.000
638.803 2075.000
639.973 1831.000
641.142 1737.000
642.311 1608.000
643.480 1583.000
644.649 1491.000
645.818 1422.000
646.987 1363.000
648.156 1372.000
649.325 1341.000
650.495 1392.000
651.664 1348.000
652.833 1357.000
654.002 1335.000
655.171 1387.000
656.340 1376.000
657.509 1422.000
658.678 1380.000
659.847 1423.000
661.016 1401.000
662.186 1456.000
663.355 1465.000
664.524 1494.000
665.693 1460.000
666.862 1523.000
668.031 1504.000
669.200 1578.000
670.369 1539.000
671.538 1561.000
672.708 1558.000
673.877 1611.000
675.046 1625.000
676.215 1676.000
677.384 1624.000
678.553 1677.000
679.722 1649.000
680.891 1696.000
682.060 1706.000
683.230 1739.000
684.399 1723.000
685.568 1784.000
686.737 1799.000
687.906 1908.000
689.075 1874.000
690.244 1936.000
691.413 1940.000
692.582 1999.000
693.752 2047.000
694.921 2127.000
696.090 2093.000
697.259 2162.000
698.428 2119.000
699.597 2163.000
700.766 2137.000
701.935 2172.000
703.104 2165.000
704.274 2249.000
705.443 2245.000
706.612 2379.000
707.781 2339.000
708.950 2381.000
710.119 2358.000
711.288 2393.000
712.457 2426.000
713.626 2464.000
714.795 2416.000
715.965 2485.000
717.134 2445.000
718.303 2520.000
719.472 2519.000
720.641 2550.000
721.810 2531.000
722.979 2575.000
724.148 2517.000
725.317 2628.000
726.487 2605.000
727.656 2663.000
728.825 2651.000
729.994 2727.000
731.163 2741.000
732.332 2771.000
733.501 2730.000
734.670 2795.000
735.839 2748.000
737.009 2811.000
738.178 2821.000
739.347 2899.000
740.516 2827.000
741.685 2907.000
742.854 2885.000
744.023 3001.000
745.192 2987.000
746.361 3061.000
747.531 3078.000
748.700 3146.000
749.869 3146.000
751.038 3187.000
752.207 3141.000
753.376 3220.000
754.545 3210.000
755.714 3282.000
756.883 3282.000
758.053 3319.000
759.222 3254.000
760.391 3294.000
761.560 3305.000
762.729 3513.000
763.898 3473.000
765.067 3500.000
766.236 3479.000
767.405 3532.000
768.574 3544.000
769.744 3599.000
770.913 3556.000
772.082 3651.000
773.251 3592.000
774.420 3698.000
775.589 3650.000
776.758 3671.000
777.927 3604.000
779.096 3673.000
780.266 3651.000
781.435 3778.000
782.604 3719.000
783.773 3783.000
784.942 3749.000
786.111 3836.000
787.280 3836.000
788.449 3928.000
789.618 3861.000
790.788 3931.000
791.957 3925.000
793.126 4024.000
794.295 4058.000
795.464 4167.000
796.633 4191.000
797.802 4276.000
798.971 4265.000
800.140 4395.000
801.310 4380.000
802.479 4423.000
803.648 4367.000
804.817 4416.000
805.986 4424.000
807.155 4534.000
808.324 4495.000
809.493 4579.000
810.662 4538.000
811.832 4647.000
813.001 4606.000
814.170 4686.000
815.339 4589.000
816.508 4641.000
817.677 4619.000
818.846 4745.000
820.015 4673.000
821.184 4716.000
822.353 4654.000
823.523 4713.000
824.692 4684.000
825.861 4765.000
827.030 4740.000
828.199 4849.000
829.368 4799.000
830.537 4858.000
831.706 4831.000
832.875 4851.000
834.045 4769.000
835.214 4784.000
836.383 4776.000
837.552 4904.000
838.721 4845.000
839.890 4922.000
841.059 4894.000
842.228 4932.000
843.397 4887.000
844.567 4916.000
845.736 4802.000
846.905 4847.000
848.074 4789.000
